#F undulator_spectrum.spec

#S 1 Undulator spectrum calculation using SRW
#UD ElectronBeamDivergenceH = 4.36821e-06
#UD ElectronBeamDivergenceV = 1.37498e-06
#UD ElectronBeamSizeH = 3.01836e-05
#UD ElectronBeamSizeV = 3.63641e-06
#UD ElectronCurrent = 0.2
#UD ElectronEnergy = 6.0
#UD ElectronEnergySpread = 0.001
#UD Kv = 0.966
#UD Kh = 0.0
#UD Kphase = 0.0
#UD NPeriods = 95.238
#UD PeriodID = 0.021
#UD distance = 31.5
#UD gapH = 1e-05
#UD gapV = 0.001
#UD gapHcenter = 0.002182559786061672
#UD gapVcenter = 0.0
#UD photonEnergyMin =  8500.000000
#UD photonEnergyMax =  150000.000000
#UD photonEnergyPoints =  2000
#UD B0 =  0.492648
#N 4 
#L PhotonEnergy[eV]  PhotonWavelength[A]  Flux[phot/sec/0.1%bw]  Spectral Power[W/eV]
 8500.0   1.4586376286258853    11706390528.0    1.875570537244052e-06
 8570.785392696349   1.4465908636430707    7031601664.0    1.126586788565632e-06
 8641.570785392696   1.4347414551388888    4185655296.0    6.706159113229553e-07
 8712.356178089045   1.4230845927191509    2520889600.0    4.038910414013606e-07
 8783.141570785392   1.411615621062038    1583415040.0    2.5369105790121755e-07
 8853.926963481741   1.4003300337192346    1052469888.0    1.6862426625421968e-07
 8924.71235617809   1.3892234672120585    743796096.0    1.1916927254716206e-07
 8995.497748874437   1.378291695406336    572426560.0    9.17128459112999e-08
 9066.283141570786   1.3675306241507839    489682464.0    7.845578019003461e-08
 9137.068534267133   1.3569362861646173    429880672.0    6.88744768086618e-08
 9207.853926963482   1.346504836160961    382040768.0    6.120967917250149e-08
 9278.63931965983   1.3362325461934836    342664416.0    5.490089206184557e-08
 9349.424712356178   1.3261158012144107    309641216.0    4.960999211985469e-08
 9420.210105052527   1.3161510948328146    281570336.0    4.51125413166729e-08
 9490.995497748874   1.3063350252627082    257457072.0    4.1249170501645564e-08
 9561.780890445223   1.2966642914511213    236553408.0    3.7900034299066865e-08
 9632.56628314157   1.2871356893768915    218278336.0    3.4972044964760096e-08
 9703.35167583792   1.277746108511457    202195520.0    3.2395293764347964e-08
 9774.137068534266   1.2684925284334383    187961328.0    3.0114724781720996e-08
 9844.922461230615   1.259372015589265    175297104.0    2.8085692403666794e-08
 9915.707853926964   1.2503817201925551    163959024.0    2.626913171862452e-08
 9986.493246623311   1.241518873255359    153776656.0    2.463773650978559e-08
 10057.27863931966   1.2327807837447702    144598208.0    2.3167187017587185e-08
 10128.064032016007   1.2241648358587736    136286672.0    2.1835532140402204e-08
 10198.849424712356   1.2156684864155356    128741192.0    2.0626612965570773e-08
 10269.634817408703   1.2072892623506617    121862456.0    1.952451795650531e-08
 10340.420210105052   1.1990247583172506    115570928.0    1.8516504041129634e-08
 10411.205602801401   1.1908726343838523    109813040.0    1.7593988679650735e-08
 10481.990995497748   1.1828306138256968    104517000.0    1.67454695255778e-08
 10552.776388194097   1.1748964810048226    99639760.0    1.596404952893678e-08
 10623.561780890446   1.167068079334953    95137616.0    1.5242726536966453e-08
 10694.347173586793   1.159343309327193    90975176.0    1.4575830126123756e-08
 10765.13256628314   1.1517201267128296    87115208.0    1.3957395072364987e-08
 10835.91795897949   1.144196540639709    83534152.0    1.3383646647540436e-08
 10906.703351675838   1.1367706119388479    80196952.0    1.2848968261241957e-08
 10977.488744372185   1.1294404514581085    77095200.0    1.235201280335568e-08
 11048.274137068534   1.1222042184599277    74192856.0    1.188700602929267e-08
 11119.059529764883   1.1150601190802507    340893952.0    5.461723245663175e-08
 11189.84492246123   1.1080064048459546    345720864.0    5.539058901870918e-08
 11260.63031515758   1.1010413712481888    351161184.0    5.6262224377257466e-08
 11331.415707853927   1.094163356369191    357201088.0    5.7229923683297775e-08
 11402.201100550275   1.087370739560248    363822752.0    5.829083121719767e-08
 11472.986493246623   1.080661940168599    371117312.0    5.945954857592877e-08
 11543.771885942971   1.0740354163111774    379110912.0    6.074026449008302e-08
 11614.55727863932   1.0674896636931939    387832704.0    6.213764962498384e-08
 11685.342671335668   1.0610232144696576    397349024.0    6.366233217955051e-08
 11756.128064032016   1.0546346361480279    407636864.0    6.531062586578358e-08
 11826.913456728364   1.048322530530274    418870592.0    6.711046751721473e-08
 11897.698849424713   1.0420855326926959    431042176.0    6.906057026557155e-08
 11968.48424212106   1.0359223100019532    444311296.0    7.118651766734576e-08
 12039.269634817409   1.0298315611658004    458707840.0    7.349309830806105e-08
 12110.055027513758   1.0238120153171155    474386336.0    7.60050703028073e-08
 12180.840420210105   1.0178624311298685    491469888.0    7.874215708681969e-08
 12251.625812906454   1.0119815959657315    510127744.0    8.173147517919336e-08
 12322.411205602803   1.0061683250501057    530542176.0    8.500222777387155e-08
 12393.19659829915   1.000421460676384    552943424.0    8.859130338567548e-08
 12463.981990995497   0.9947398714373276    577588096.0    9.253981514877489e-08
 12534.767383691846   0.9891224514824892    604947648.0    9.692329864188567e-08
 12605.552776388195   0.9835681198006521    635896896.0    1.018819148404328e-07
 12676.338169084542   0.9780758195263115    672710720.0    1.0778013970253165e-07
 12747.12356178089   0.9726445172692633    718907648.0    1.1518170356294968e-07
 12817.90895447724   0.9672732024664064    777956032.0    1.2464229767497563e-07
 12888.694347173587   0.9619608867549043    851919360.0    1.3649252926442343e-07
 12959.479739869934   0.9567066033658895    947141184.0    1.5174874741038945e-07
 13030.265132566283   0.9515094065379301    1075801216.0    1.7236235711039866e-07
 13101.050525262632   0.9463683709495105    1254495232.0    2.009922948174809e-07
 13171.835917958979   0.9412825911698119    1507019392.0    2.4145112568472866e-07
 13242.621310655328   0.9362511811271054    1867110272.0    2.9914404508997843e-07
 13313.406703351677   0.9312732735941056    2381093120.0    3.8149317602421576e-07
 13384.192096048024   0.9263480196896555    3110020608.0    4.982802349396073e-07
 13454.977488744371   0.9214745883961383    4138164224.0    6.630070027347542e-07
 13525.762881440722   0.9166521660920456    5577703936.0    8.936466917629031e-07
 13596.548274137069   0.9118799560991457    7567860736.0    1.212504964058524e-06
 13667.333666833416   0.9071571782437222    10282024960.0    1.6473620141116783e-06
 13738.119059529765   0.9024830684313785    13929903104.0    2.231816526711287e-06
 13808.904452226114   0.89785687823492    18757754880.0    3.005323657503547e-06
 13879.68984492246   0.8932778744948454    25045696512.0    4.01276297337817e-06
 13950.47523761881   0.8887453389320017    33101393920.0    5.303427989145366e-06
 14021.260630315159   0.8842585677719725    43249061888.0    6.929263639937352e-06
 14092.046023011506   0.8798168713807857    55813844992.0    8.94236382998803e-06
 14162.831415707853   0.875419573911546    71101079552.0    1.1391648831038957e-05
 14233.616808404202   0.8710660129616116    89371418624.0    1.4318879866680522e-05
 14304.40220110055   0.8667555392399493    110812643328.0    1.775414278918976e-05
 14375.187593796898   0.8624875162443184    135510573056.0    2.1711187381027316e-05
 14445.972986493247   0.8582613199479433    163420454912.0    2.6182843437765693e-05
 14516.758379189596   0.8540763384953558    194342666240.0    3.113712788389886e-05
 14587.543771885943   0.8499319719070911    227905011712.0    3.6514408453646275e-05
 14658.32916458229   0.8458276317929403    263554580480.0    4.2226099062872846e-05
 14729.114557278639   0.8417627410734706    300562284544.0    4.815538693580562e-05
 14799.899949974988   0.8377367337095397    338039209984.0    5.4159852361218425e-05
 14870.685342671335   0.8337490544395315    374967631872.0    6.0076437829163196e-05
 14941.470735367684   0.8297991585240637    410244612096.0    6.572843317246048e-05
 15012.256128064033   0.8258865114979167    442736017408.0    7.093413021213148e-05
 15083.04152076038   0.8220105889289486    471335927808.0    7.551634102986884e-05
 15153.826913456727   0.8181708761837662    495030239232.0    7.931258824209405e-05
 15224.612306153076   0.8143668681999321    512955645952.0    8.21845550222671e-05
 15295.397698849425   0.8105980692645004    524452397056.0    8.402653762084136e-05
 15366.183091545772   0.8068639927986696    529104601088.0    8.477190288050845e-05
 15436.968484242121   0.8031641611483622    526763917312.0    8.439688399515945e-05
 15507.75387693847   0.7994981053805398    517558206464.0    8.292196651315685e-05
 15578.539269634817   0.7958653650850708    501879930880.0    8.041002983294709e-05
 15649.324662331164   0.7922654881819754    480359088128.0    7.696201069282283e-05
 15720.110055027515   0.7886980307338773    453821792256.0    7.271026715525654e-05
 15790.895447723862   0.7851625567635029    423238270976.0    6.781024683723075e-05
 15861.68084042021   0.781658638076062    389665357824.0    6.243127313848619e-05
 15932.466233116558   0.778185854086368    354187444224.0    5.67470847191871e-05
 16003.251625812907   0.7747437916505441    317860577280.0    5.092687897877673e-05
 16074.037018509254   0.7713320449021764    281664258048.0    4.5127589287745205e-05
 16144.822411205603   0.7679502150927768    246461743104.0    3.948752459761394e-05
 16215.607803901952   0.7645979104364254    212973158400.0    3.412206180576608e-05
 16286.3931965983   0.761274745958464    181759426560.0    2.91210706243671e-05
 16357.178589294646   0.757980343348117    153218793472.0    2.4548357079051013e-05
 16427.963981990993   0.7547143308149252    127592775680.0    2.0442616386169944e-05
 16498.749374687344   0.7514763429488714    104980439040.0    1.6819720645694936e-05
 16569.53476738369   0.7482660205840964    85358370816.0    1.3675918723770271e-05
 16640.32016008004   0.7450830106660875    68604411904.0    1.0991638574190025e-05
 16711.10555277639   0.7419269661222473    54522327040.0    8.735439841479438e-06
 16781.890945472736   0.7387975457357359    42865446912.0    6.867801744837385e-06
 16852.676338169083   0.7356944140224924    33358960640.0    5.344694727193368e-06
 16923.461730865434   0.7326172411113429    25718587392.0    4.120571977894939e-06
 16994.24712356178   0.729565702627106    19664986112.0    3.1506781256580903e-06
 17065.03251625813   0.7265394795766053    14933172224.0    2.392557960879061e-06
 17135.81790895448   0.7235382582375083    11283046400.0    1.8077433302417817e-06
 17206.603301650823   0.720561730049911    8505054208.0    1.3626599122960975e-06
 17277.388694347173   0.7176095915105822    6415045632.0    1.0278036217634162e-06
 17348.174087043524   0.7146815440698039    4851707904.0    7.773293038781914e-07
 17418.959479739868   0.7117772940307214    3705300992.0    5.93654667131942e-07
 17489.74487243622   0.7088965524511394    2875064832.0    4.606361695065535e-07
 17560.530265132566   0.7060390350476942    2272548864.0    3.6410246895240437e-07
 17631.315657828913   0.7032044621023332    1834141568.0    2.938618763697722e-07
 17702.101050525263   0.7003925583710379    1514533376.0    2.426549986440336e-07
 17772.88644322161   0.697603052994729    1281579648.0    2.0533169666355445e-07
 17843.671835917958   0.6948356794122916    1108114688.0    1.7753954609058e-07
 17914.45722861431   0.692090175275662    977347712.0    1.5658836674597612e-07
 17985.242621310656   0.6893662823669211    899361280.0    1.4409356283403315e-07
 18056.028014007003   0.6866637465173362    857214528.0    1.3734090870869385e-07
 18126.813406703353   0.6839823175283004    825838976.0    1.3231399107936868e-07
 18197.5987993997   0.681321749094118    799712000.0    1.281279880329408e-07
 18268.384192096048   0.6786817987265833    777679104.0    1.2459792891788558e-07
 18339.1695847924   0.6760622276813074    759082816.0    1.2161847510661212e-07
 18409.954977488742   0.6734628008857447    743528320.0    1.1912637010212749e-07
 18480.740370185093   0.6708832868688719    730727040.0    1.1707537893199834e-07
 18551.525762881443   0.6683234576924787    720400000.0    1.1542080471335999e-07
 18622.311155577787   0.6657830888840256    712386688.0    1.1413693058862482e-07
 18693.096548274138   0.6632619593710238    706627072.0    1.1321413837102355e-07
 18763.881940970485   0.6607598514169062    702981120.0    1.12629992460715e-07
 18834.667333666832   0.6582765505583388    701527424.0    1.1239708468430108e-07
 18905.452726363183   0.6558118455439439    702557952.0    1.1256219347252934e-07
 18976.23811905953   0.6533655282743942    706969024.0    1.1326892512145852e-07
 19047.023511755877   0.6509373937438406    715894528.0    1.1469894851700587e-07
 19117.808904452228   0.6485272399826444    730707072.0    1.1707217970569555e-07
 19188.594297148575   0.6461348680013748    752840320.0    1.206183169837083e-07
 19259.37968984492   0.6437600817360415    782520768.0    1.2537364901093347e-07
 19330.165082541273   0.6414026879945325    819764672.0    1.313407802857074e-07
 19400.95047523762   0.6390624964042217    867305600.0    1.3895767668573504e-07
 19471.735867933967   0.6367393193607217    929438720.0    1.4891249999188684e-07
 19542.521260630318   0.6344329719777484    1010857408.0    1.6195721194034045e-07
 19613.30665332666   0.6321432720380732    1117461632.0    1.7903709161819067e-07
 19684.09204602301   0.6298700399455311    1256742400.0    2.0135233082370814e-07
 19754.87743871936   0.6276130986780636    1438309632.0    2.3044260848475386e-07
 19825.662831415706   0.6253722737417644    1674010368.0    2.6820602966833413e-07
 19896.448224112057   0.6231473931259078    1978530816.0    3.169955843044153e-07
 19967.233616808404   0.6209382872589343    2369893888.0    3.7969886124130125e-07
 20038.01900950475   0.6187447889653669    2868415744.0    4.5957086816345253e-07
 20108.8044022011   0.6165667334236391    3499433216.0    5.606710130918675e-07
 20179.58979489745   0.6144039581248105    4295986176.0    6.882928671174211e-07
 20250.375187593796   0.6122563028321472    5295765504.0    8.484751749652033e-07
 20321.160580290147   0.6101236095415472    6541257728.0    1.0480250288773526e-06
 20391.945972986494   0.6080057224427915    8081783296.0    1.2948444357902703e-06
 20462.73136568284   0.6059024878815972    9973526528.0    1.5979351161740745e-06
 20533.51675837919   0.603813754322457    12279725056.0    1.967428855666754e-06
 20604.302151075535   0.6017393723122447    15070432256.0    2.4145494424843105e-06
 20675.087543771886   0.599679194444567    18422155264.0    2.95155467119009e-06
 20745.872936468237   0.597633075324847    22417162240.0    3.5916253541515095e-06
 20816.65832916458   0.5956008715361186    27142432768.0    4.348697157080555e-06
 20887.44372186093   0.5935824416055164    32688203776.0    5.237227629733777e-06
 20958.229114557278   0.5915776459714464    39146217472.0    6.271915494312095e-06
 21029.014507253625   0.5895863469514174    46607245312.0    7.467303941399244e-06
 21099.799899949976   0.5876084087105214    55158521856.0    8.83736948836615e-06
 21170.585292646323   0.5856436972305467    64880640000.0    1.0395024540696575e-05
 21241.37068534267   0.5836920802797059    75844214784.0    1.2151582875100216e-05
 21312.15607803902   0.5817534273829714    88106164224.0    1.4116163763105952e-05
 21382.941470735368   0.5798276097929963    101706145792.0    1.629512103221398e-05
 21453.726863431715   0.577914500461613    116662738944.0    1.8691431439451864e-05
 21524.512256128066   0.5760139740118931    132969897984.0    2.130412635753285e-05
 21595.297648824413   0.5741259067107585    150593880064.0    2.4127799586193922e-05
 21666.08304152076   0.5722501764421268    169470345216.0    2.7152142726098888e-05
 21736.86843421711   0.5703866626805839    189502357504.0    3.0361624928082338e-05
 21807.653826913454   0.5685352464655679    210559270912.0    3.373531439272823e-05
 21878.439219609805   0.5666958103760542    232476344320.0    3.7246816682724264e-05
 21949.224612306152   0.5648682385057316    255055642624.0    4.086441909820272e-05
 22020.0100050025   0.5630524164386554    278067970048.0    4.455140042747174e-05
 22090.79539769885   0.5612482312253702    301267681280.0    4.826840395261752e-05
 22161.580790395197   0.5594555713594892    324415913984.0    5.197715970829186e-05
 22232.366183091544   0.5576743267547221    347095334912.0    5.561080353664108e-05
 22303.151575787895   0.5559043887223383    368689119232.0    5.9070509204355034e-05
 22373.936968484242   0.5541456499490611    389575475200.0    6.241687235448865e-05
 22444.72236118059   0.5523980044753768    409106612224.0    6.554610549201916e-05
 22515.50775387694   0.5506613476742556    426977263616.0    6.840929950148136e-05
 22586.293146573287   0.5489355762302709    442900742144.0    7.096052202443759e-05
 22657.078539269634   0.5472205881191113    456615788544.0    7.315791471206817e-05
 22727.863931965985   0.5455162825874745    467894403072.0    7.496494797813361e-05
 22798.64932466233   0.5438225601333363    476547874816.0    7.635138700125522e-05
 22869.43471735868   0.5421393224865853    482432253952.0    7.729416847698485e-05
 22940.22011005503   0.5404664725900176    485451857920.0    7.777796236913117e-05
 23011.005502751374   0.5388039145806808    485562089472.0    7.779562341082558e-05
 23081.790895447724   0.5371515537715614    482770583552.0    7.734837485495592e-05
 23152.57628814407   0.5355092966336099    477136191488.0    7.644564572378232e-05
 23223.36168084042   0.5338770507780916    468767801344.0    7.510488180849106e-05
 23294.14707353677   0.532254724939262    457820078080.0    7.335086316758315e-05
 23364.932466233116   0.5306422289573557    444489203712.0    7.121502162526324e-05
 23435.717858929464   0.5290394737618839    429007011840.0    6.873450101922093e-05
 23506.503251625814   0.5274463713552332    411634335744.0    6.595109144811478e-05
 23577.28864432216   0.5258628347965614    392653930496.0    6.291009526889513e-05
 23648.07403701851   0.5242887781859799    372363067392.0    5.965914059400297e-05
 23718.85942971486   0.522724116649022    351065505792.0    5.62468950383334e-05
 23789.644822411206   0.5211687663213872    329064972288.0    5.272202096676911e-05
 23860.430215107554   0.5196226443339567    306657689600.0    4.913197849135447e-05
 23931.215607803904   0.5180856687980754    284126511104.0    4.5522085719077035e-05
 24002.001000500248   0.516557758791095    261735284736.0    4.19346157497356e-05
 24072.7863931966   0.5150388343421699    239724724224.0    3.840813517437866e-05
 24143.571785892946   0.5135288164183066    218308739072.0    3.497691607391612e-05
 24214.357178589293   0.5120276269106536    197672108032.0    3.167056326823941e-05
 24285.142571285643   0.5105351886210343    177969053696.0    2.8513785940682252e-05
 24355.92796398199   0.5090514252487134    159323078656.0    2.552637138795873e-05
 24426.713356678338   0.5075762613773932    141826981888.0    2.272318764516948e-05
 24497.49874937469   0.5061096224624362    125544636416.0    2.011446829897407e-05
 24568.284142071036   0.5046514348183078    110512439296.0    1.7706044800639462e-05
 24639.069534767383   0.5032016256062357    96742154240.0    1.5499801904615202e-05
 24709.854927463733   0.5017601228220818    84223369216.0    1.3494071419463008e-05
 24780.64032016008   0.5003268552844212    72926814208.0    1.1684163771611681e-05
 24851.425712856428   0.49890175262282566    62807285760.0    1.0062836568963293e-05
 24922.211105552775   0.4974847452663462    53806923776.0    8.620819602132624e-06
 24992.996498249126   0.4960757644321917    45858344960.0    7.347316876882366e-06
