#Energy/kev LLdeltaEinEV  BBdeltaEineV
20  9.4  2.71 
22.069  10.2  2.98 
24.1379  11.4  3.27 
26.2069  12.7  3.54 
28.2759  14.4  3.83 
30.3448  16.2  4.1 
32.4138  18.3  4.38 
34.4828  20.5  4.66 
36.5517  22.9  4.94 
38.6207  25.5  5.22 
40.6897  28.2  5.5 
42.7586  31.2  5.77 
44.8276  34.2  6.06 
46.8966  37.5  6.33 
48.9655  40.9  6.62 
51.0345  44.5  6.89 
53.1034  48.3  7.17 
55.1724  52.2  7.45 
57.2414  56.3  7.73 
59.3103  60.6  8.01 
61.3793  65  8.29 
63.4483  69.6  8.56 
65.5172  74.3  8.85 
67.5862  79.2  9.12 
69.6552  84.3  9.41 
71.7241  89.5  9.68 
73.7931  94.9  9.96 
75.8621  100.5  10.24 
77.931  106.2  10.52 
80  112.2  10.8 
