#F undulator_spectrum.spec

#S 1 Undulator spectrum calculation using SRW
#UD ElectronBeamDivergenceH = 4.36821e-06
#UD ElectronBeamDivergenceV = 1.37498e-06
#UD ElectronBeamSizeH = 3.01836e-05
#UD ElectronBeamSizeV = 3.63641e-06
#UD ElectronCurrent = 0.2
#UD ElectronEnergy = 6.0
#UD ElectronEnergySpread = 0.00093339
#UD Kv = 0.8525
#UD Kh = 0.0
#UD Kphase = 0.0
#UD NPeriods = 117.6470588235294
#UD PeriodID = 0.017
#UD distance = 27.3
#UD gapH = 0.0005
#UD gapV = 0.0005
#UD gapHcenter = 0.0
#UD gapVcenter = 0.0
#UD photonEnergyMin =  500.000000
#UD photonEnergyMax =  80000.000000
#UD photonEnergyPoints =  10000
#UD B0 =  0.537062
#N 4 
#L PhotonEnergy[eV]  PhotonWavelength[A]  Flux[phot/sec/0.1%bw]  Spectral Power[W/eV]
 500.0   24.796839686640052    0.0    0.0
 507.95079507950794   24.40870250312206    0.0    0.0
 515.9015901590159   24.03252883849122    0.0    0.0
 523.8523852385239   23.667773962076545    0.0    0.0
 531.8031803180318   23.313925719484146    0.0    0.0
 539.7539753975398   22.9705021332883    0.0    0.0
 547.7047704770478   22.63704921270098    0.0    0.0
 555.6555655565556   22.313138951288146    0.0    0.0
 563.6063606360636   21.99836749416324    0.0    0.0
 571.5571557155715   21.692353458155196    0.0    0.0
 579.5079507950795   21.394736390259197    0.0    0.0
 587.4587458745875   21.10517535126948    0.0    0.0
 595.4095409540954   20.823347612892743    0.0    0.0
 603.3603360336034   20.54894745787451    0.0    0.0
 611.3111311131113   20.281685073759828    0.0    0.0
 619.2619261926193   20.02128553187289    0.0    0.0
 627.2127212721272   19.767487843953912    0.0    0.0
 635.1635163516352   19.52004408964839    0.0    0.0
 643.114311431143   19.278718608717355    0.0    0.0
 651.065106510651   19.043287252435785    0.0    0.0
 659.015901590159   18.813536689180808    0.0    0.0
 666.9666966696669   18.58926375968765    0.0    0.0
 674.9174917491749   18.370274877877595    0.0    0.0
 682.8682868286828   18.156385473543782    0.0    0.0
 690.8190819081908   17.94741947352254    0.0    0.0
 698.7698769876988   17.74320881828495    0.0    0.0
 706.7206720672067   17.543593011159267    0.0    0.0
 714.6714671467147   17.34841869764301    0.0    0.0
 722.6222622262226   17.157539272487295    0.0    0.0
 730.5730573057306   16.970814512437638    0.0    0.0
 738.5238523852386   16.788110232697804    0.0    0.0
 746.4746474647465   16.609297965347928    0.0    0.0
 754.4254425442545   16.43425465809729    0.0    0.0
 762.3762376237623   16.262862391887307    0.0    0.0
 770.3270327032703   16.095008115982726    0.0    0.0
 778.2778277827783   15.930583399300556    0.0    0.0
 786.2286228622862   15.76948419682719    0.0    0.0
 794.1794179417941   15.611610630066359    0.0    0.0
 802.1302130213021   15.456866780544473    0.0    0.0
 810.0810081008101   15.305160495476166    0.0    0.0
 818.0318031803181   15.156403204762752    0.0    0.0
 825.982598259826   15.010509748559988    0.0    0.0
 833.9333933393339   14.867398214709713    0.0    0.0
 841.8841884188419   14.726989785383338    0.0    0.0
 849.8349834983499   14.589208592333856    0.0    0.0
 857.7857785778579   14.453981580197848    0.0    0.0
 865.7365736573657   14.321238377329978    0.0    0.0
 873.6873687368736   14.190911173690129    0.0    0.0
 881.6381638163816   14.06293460533798    0.0    0.0
 889.5889588958896   13.937245645121633    0.0    0.0
 897.5397539753976   13.813783499176214    0.0    0.0
 905.4905490549055   13.692489508875298    0.0    0.0
 913.4413441344134   13.573307057902989    0.0    0.0
 921.3921392139214   13.4561814841373    0.0    0.0
 929.3429342934294   13.341059996056707    0.0    0.0
 937.2937293729374   13.227891593401294    0.0    0.0
 945.2445244524453   13.11662699183801    0.0    0.0
 953.1953195319531   13.007218551396175    0.0    0.0
 961.1461146114611   12.899620208455017    0.0    0.0
 969.0969096909691   12.793787411079148    0.0    0.0
 977.047704770477   12.689677057511332    0.0    0.0
 984.998499849985   12.587247437644121    0.0    0.0
 992.9492949294929   12.486458177303414    0.0    0.0
 1000.9000900090009   12.387270185187543    0.0    0.0
 1008.8508850885089   12.289645602315433    0.0    0.0
 1016.8016801680168   12.193547753846458    0.0    0.0
 1024.7524752475247   12.098941103143215    0.0    0.0
 1032.7032703270327   12.00579120795632    0.0    0.0
 1040.6540654065407   11.914064678617745    0.0    0.0
 1048.6048604860484   11.823729138136096    0.0    0.0
 1056.5556555655567   11.73475318409361    0.0    0.0
 1064.5064506450644   11.647106352250747    0.0    0.0
 1072.4572457245724   11.560759081769659    0.0    0.0
 1080.4080408040804   11.475682681973241    0.0    0.0
 1088.3588358835882   11.391849300561171    0.0    0.0
 1096.3096309630964   11.309231893208988    0.0    0.0
 1104.2604260426042   11.227804194480546    0.0    0.0
 1112.2112211221122   11.147540689988036    0.0    0.0
 1120.1620162016202   11.068416589737685    0.0    0.0
 1128.112811281128   10.990407802602569    0.0    0.0
 1136.0636063606362   10.91349091186733    0.0    0.0
 1144.014401440144   10.837643151792722    0.0    0.0
 1151.965196519652   10.762842385150579    0.0    0.0
 1159.91599159916   10.689067081682785    0.0    0.0
 1167.8667866786677   10.616296297440115    0.0    0.0
 1175.817581758176   10.544509654959338    0.0    0.0
 1183.7683768376837   10.47368732423917    0.0    0.0
 1191.7191719171917   10.403810004477757    0.0    0.0
 1199.6699669966997   10.334858906536363    0.0    0.0
 1207.6207620762075   10.266815736095815    0.0    0.0
 1215.5715571557157   10.199662677473933    0.0    0.0
 1223.5223522352235   10.133382378073971    0.0    0.0
 1231.4731473147315   10.06795793343541    0.0    0.0
 1239.4239423942395   10.00337287286024    0.0    0.0
 1247.3747374737472   9.93961114558885    0.0    0.0
 1255.3255325532555   9.876657107501348    0.0    0.0
 1263.2763276327632   9.81449550832102    0.0    0.0
 1271.2271227122712   9.753111479298006    0.0    0.0
 1279.1779177917792   9.692490521352326    0.0    0.0
 1287.128712871287   9.632618493656329    0.0    0.0
 1295.0795079507952   9.573481602637703    0.0    0.0
 1303.030303030303   9.515066391385137    0.0    0.0
 1310.981098109811   9.457359729439444    0.0    0.0
 1318.931893189319   9.40034880295397    0.0    0.0
 1326.8826882688268   9.34402110520874    0.0    0.0
 1334.833483348335   9.28836442746362    0.0    0.0
 1342.7842784278428   9.233366850136441    0.0    0.0
 1350.7350735073508   9.17901673429268    0.0    0.0
 1358.6858685868588   9.125302713433951    0.0    0.0
 1366.6366636663665   9.07221368557314    0.0    0.0
 1374.5874587458748   9.019738805584556    0.0    0.0
 1382.5382538253825   8.967867477818066    0.0    0.0
 1390.4890489048905   8.916589348966587    0.0    0.0
 1398.4398439843985   8.865894301176924    0.0    0.0
 1406.3906390639063   8.815772445394272    0.0    0.0
 1414.3414341434143   8.766214114931195    0.0    0.0
 1422.2922292229223   8.717209859252325    0.0    0.0
 1430.2430243024303   8.668750437966363    0.0    0.0
 1438.1938193819383   8.620826815017345    0.0    0.0
 1446.144614461446   8.573430153067562    0.0    0.0
 1454.095409540954   8.526551808064717    0.0    0.0
 1462.046204620462   8.480183323986383    0.0    0.0
 1469.99699969997   8.434316427755004    0.0    0.0
 1477.947794779478   8.38894302431702    0.0    0.0
 1485.8985898589858   8.34405519187999    0.0    0.0
 1493.8493849384938   8.299645177301798    0.0    0.0
 1501.8001800180018   8.25570539162634    0.0    0.0
 1509.7509750975096   8.212228405760264    0.0    0.0
 1517.7017701770178   8.169206946285588    0.0    0.0
 1525.6525652565256   8.126633891403275    0.0    0.0
 1533.6033603360336   8.084502267002962    0.0    0.0
 1541.5541554155416   8.04280524285435    0.0    0.0
 1549.5049504950496   8.001536128915799    0.0    0.0
 1557.4557455745576   7.9606883717560475    0.0    0.0
 1565.4065406540653   7.920255551084935    0.0    0.0
 1573.3573357335733   7.880231376389331    0.0    0.0
 1581.3081308130813   7.840609683670553    0.0    0.0
 1589.2589258925893   7.801384432279715    0.0    0.0
 1597.209720972097   7.762549701847591    0.0    0.0
 1605.160516051605   7.72409968930573    0.0    0.0
 1613.111311131113   7.686028705995656    0.0    0.0
 1621.062106210621   7.648331174863158    0.0    0.0
 1629.012901290129   7.6110016277347174    0.0    0.0
 1636.9636963696369   7.574034702673323    0.0    0.0
 1644.9144914491449   7.537425141410971    0.0    0.0
 1652.8652865286529   7.501167786855264    0.0    0.0
 1660.8160816081609   7.465257580667626    0.0    0.0
 1668.7668766876689   7.42968956091076    0.0    0.0
 1676.7176717671766   7.394458859763022    0.0    0.0
 1684.6684668466846   7.359560701297533    0.0    0.0
 1692.6192619261926   7.324990399323876    0.0    0.0
 1700.5700570057006   7.29074335529034    0.0    0.0
 1708.5208520852086   7.256815056244735    0.0    0.0
 1716.4716471647164   7.223201072851888    0.0    0.0
 1724.4224422442244   7.189897057465967    0.0    0.0
 1732.3732373237324   7.1568987422559145    0.0    0.0
 1740.3240324032404   7.124201937382234    0.0    0.0
 1748.2748274827484   7.0918025292235525    0.0    0.0
 1756.2256225622561   7.059696478651345    0.0    0.0
 1764.1764176417641   7.027879819351301    0.0    0.0
 1772.1272127212721   6.996348656189901    0.0    0.0
 1780.0780078007801   6.965099163624751    0.0    0.0
 1788.0288028802881   6.934127584157336    0.0    0.0
 1795.979597959796   6.90343022682687    0.0    0.0
 1803.930393039304   6.873003465743975    0.0    0.0
 1811.881188118812   6.842843738662966    0.0    0.0
 1819.83198319832   6.812947545591566    0.0    0.0
 1827.7827782778277   6.783311447436908    0.0    0.0
 1835.7335733573357   6.753932064686713    0.0    0.0
 1843.6843684368437   6.7248060761245965    0.0    0.0
 1851.6351635163517   6.695930217578489    0.0    0.0
 1859.5859585958597   6.667301280701137    0.0    0.0
 1867.5367536753674   6.638916111781773    0.0    0.0
 1875.4875487548754   6.610771610588009    0.0    0.0
 1883.4383438343834   6.582864729237061    0.0    0.0
 1891.3891389138914   6.555192471095439    0.0    0.0
 1899.3399339933994   6.527751889706286    0.0    0.0
 1907.2907290729072   6.500540087743535    0.0    0.0
 1915.2415241524152   6.473554215992112    0.0    0.0
 1923.1923192319232   6.446791472353455    0.0    0.0
 1931.1431143114312   6.420249100875576    0.0    0.0
 1939.0939093909392   6.393924390807    0.0    0.0
 1947.044704470447   6.3678146756738805    0.0    0.0
 1954.995499549955   6.3419173323796265    0.0    0.0
 1962.946294629463   6.316229780326427    0.0    0.0
 1970.897089708971   6.290749480558023    0.0    0.0
 1978.847884788479   6.265473934923151    0.0    0.0
 1986.7986798679867   6.240400685259083    0.0    0.0
 1994.7494749474947   6.215527312594668    0.0    0.0
 2002.7002700270027   6.190851436372382    0.0    0.0
 2010.6510651065107   6.166370713688823    0.0    0.0
 2018.6018601860187   6.142082838553157    0.0    0.0
 2026.5526552655265   6.117985541163025    0.0    0.0
 2034.5034503450345   6.094076587197411    0.0    0.0
 2042.4542454245425   6.070353777126059    0.0    0.0
 2050.4050405040507   6.04681494553492    0.0    0.0
 2058.3558355835585   6.023457960467261    0.0    0.0
 2066.3066306630662   6.000280722779969    0.0    0.0
 2074.257425742574   5.977281165514667    0.0    0.0
 2082.2082208220822   5.954457253283234    0.0    0.0
 2090.1590159015905   5.931806981667356    0.0    0.0
 2098.1098109810982   5.9093283766317235    0.0    0.0
 2106.060606060606   5.8870194939505165    0.0    0.0
 2114.011401140114   5.864878418646842    0.0    0.0
 2121.962196219622   5.842903264444772    0.0    0.0
 2129.91299129913   5.8210921732336445    0.0    0.0
 2137.863786378638   5.799443314544334    0.0    0.0
 2145.8145814581458   5.777954885037143    0.0    0.0
 2153.7653765376535   5.7566251080010655    0.0    0.0
 2161.7161716171618   5.735452232864073    0.0    0.0
 2169.66696669667   5.7144345347141865    0.0    0.0
 2177.6177617761778   5.693570313831033    0.0    0.0
 2185.5685568556855   5.672857895227627    0.0    0.0
 2193.5193519351933   5.652295628202113    0.0    0.0
 2201.4701470147015   5.6318818858992366    0.0    0.0
 2209.4209420942097   5.611615064881266    0.0    0.0
 2217.3717371737175   5.591493584708158    0.0    0.0
 2225.3225322532253   5.571515887526715    0.0    0.0
 2233.273327332733   5.551680437668523    0.0    0.0
 2241.2241224122413   5.531985721256445    0.0    0.0
 2249.1749174917495   5.512430245819468    0.0    0.0
 2257.1257125712573   5.493012539915678    0.0    0.0
 2265.076507650765   5.473731152763183    0.0    0.0
 2273.027302730273   5.454584653878782    0.0    0.0
 2280.978097809781   5.435571632724189    0.0    0.0
 2288.928892889289   5.416690698359634    0.0    0.0
 2296.879687968797   5.3979404791046495    0.0    0.0
 2304.830483048305   5.379319622205889    0.0    0.0
 2312.7812781278126   5.360826793511792    0.0    0.0
 2320.732073207321   5.342460677153929    0.0    0.0
 2328.6828682868286   5.324219975234896    0.0    0.0
 2336.633663366337   5.306103407522553    0.0    0.0
 2344.5844584458446   5.288109711150509    0.0    0.0
 2352.5352535253523   5.270237640324659    0.0    0.0
 2360.4860486048606   5.252485966035671    0.0    0.0
 2368.4368436843683   5.234853475777254    0.0    0.0
 2376.3876387638766   5.217338973270077    0.0    0.0
 2384.3384338433843   5.199941278191223    0.0    0.0
 2392.289228922892   5.18265922590903    0.0    0.0
 2400.2400240024003   5.165491667223206    0.0    0.0
 2408.190819081908   5.1484374681100915    0.0    0.0
 2416.1416141614163   5.131495509472947    0.0    0.0
 2424.092409240924   5.114664686897165    0.0    0.0
 2432.043204320432   5.097943910410271    0.0    0.0
 2439.99399939994   5.081332104246622    0.0    0.0
 2447.944794479448   5.064828206616699    0.0    0.0
 2455.895589558956   5.0484311694808675    0.0    0.0
 2463.846384638464   5.032139958327527    0.0    0.0
 2471.7971797179716   5.0159535519555325    0.0    0.0
 2479.74797479748   4.999870942260816    0.0    0.0
 2487.6987698769876   4.983891134027093    0.0    0.0
 2495.649564956496   4.9680131447205635    0.0    0.0
 2503.6003600360036   4.952236004288531    0.0    0.0
 2511.5511551155114   4.936558754961851    0.0    0.0
 2519.501950195019   4.920980451061108    0.0    0.0
 2527.4527452745274   4.905500158806464    0.0    0.0
 2535.4035403540356   4.890116956131075    0.0    0.0
 2543.3543354335434   4.874829932498011    0.0    0.0
 2551.305130513051   4.859638188720603    0.0    0.0
 2559.2559255925594   4.844540836786125    0.0    0.0
 2567.206720672067   4.829536999682773    0.0    0.0
 2575.1575157515754   4.814625811229831    0.0    0.0
 2583.108310831083   4.799806415910988    0.0    0.0
 2591.059105910591   4.785077968710705    0.0    0.0
 2599.009900990099   4.770439634953609    0.0    0.0
 2606.960696069607   4.755890590146812    0.0    0.0
 2614.911491149115   4.741430019825099    0.0    0.0
 2622.862286228623   4.727057119398953    0.0    0.0
 2630.8130813081307   4.71277109400532    0.0    0.0
 2638.763876387639   4.698571158361074    0.0    0.0
 2646.7146714671467   4.684456536619129    0.0    0.0
 2654.6654665466544   4.67042646222713    0.0    0.0
 2662.6162616261627   4.656480177788681    0.0    0.0
 2670.5670567056704   4.642616934927047    0.0    0.0
 2678.5178517851787   4.628835994151291    0.0    0.0
 2686.4686468646864   4.6151366247247765    0.0    0.0
 2694.419441944194   4.601518104536011    0.0    0.0
 2702.3702370237024   4.58797971997176    0.0    0.0
 2710.32103210321   4.574520765792401    0.0    0.0
 2718.2718271827184   4.561140545009453    0.0    0.0
 2726.222622262226   4.547838368765272    0.0    0.0
 2734.173417341734   4.534613556214819    0.0    0.0
 2742.124212421242   4.521465434409502    0.0    0.0
 2750.07500750075   4.50839333818303    0.0    0.0
 2758.025802580258   4.495396610039233    0.0    0.0
 2765.976597659766   4.482474600041832    0.0    0.0
 2773.9273927392737   4.469626665706089    0.0    0.0
 2781.878187818782   4.456852171892327    0.0    0.0
 2789.8289828982897   4.444150490701258    0.0    0.0
 2797.779777977798   4.431521001371115    0.0    0.0
 2805.7305730573057   4.418963090176511    0.0    0.0
 2813.6813681368135   4.406476150329031    0.0    0.0
 2821.6321632163217   4.394059581879488    0.0    0.0
 2829.5829582958295   4.381712791621848    0.0    0.0
 2837.5337533753377   4.369435192998746    0.0    0.0
 2845.4845484548455   4.357226206008609    0.0    0.0
 2853.4353435343533   4.34508525711431    0.0    0.0
 2861.3861386138615   4.333011779153366    0.0    0.0
 2869.3369336933692   4.32100521124961    0.0    0.0
 2877.2877287728775   4.3090649987263445    0.0    0.0
 2885.2385238523852   4.297190593020916    0.0    0.0
 2893.189318931893   4.285381451600711    0.0    0.0
 2901.1401140114012   4.2736370378805155    0.0    0.0
 2909.090909090909   4.2619568211412595    0.0    0.0
 2917.0417041704172   4.2503402764500535    0.0    0.0
 2924.992499249925   4.238786884581562    0.0    0.0
 2932.943294329433   4.227296131940633    0.0    0.0
 2940.894089408941   4.215867510486191    0.0    0.0
 2948.8448844884488   4.2045005176563714    0.0    0.0
 2956.795679567957   4.19319465629484    0.0    0.0
 2964.7464746474648   4.181949434578318    0.0    0.0
 2972.6972697269725   4.170764365945262    0.0    0.0
 2980.6480648064808   4.159638969025683    0.0    0.0
 2988.5988598859885   4.148572767572096    0.0    0.0
 2996.5496549654968   4.137565290391554    0.0    0.0
 3004.5004500450045   4.126616071278774    0.0    0.0
 3012.4512451245123   4.115724648950317    0.0    0.0
 3020.4020402040205   4.1048905669798    0.0    0.0
 3028.3528352835283   4.09411337373415    0.0    0.0
 3036.3036303630365   4.083392622310835    0.0    0.0
 3044.2544254425443   4.07272787047609    0.0    0.0
 3052.205220522052   4.062118680604113    0.0    0.0
 3060.1560156015603   4.051564619617202    0.0    0.0
 3068.106810681068   4.041065258926819    0.0    0.0
 3076.0576057605763   4.0306201743755805    0.0    0.0
 3084.008400840084   4.020228946180139    0.0    0.0
 3091.959195919592   4.009891158874936    0.0    0.0
 3099.9099909991   3.999606401256838    0.0    0.0
 3107.860786078608   3.9893742663306124    0.0    0.0
 3115.8115811581156   3.9791943512552383    0.0    0.0
 3123.762376237624   3.9690662572910385    0.0    0.0
 3131.7131713171316   3.958989589747619    0.0    0.0
 3139.66396639664   3.9489639579325955    0.0    0.0
 3147.6147614761476   3.9389889751011005    0.0    0.0
 3155.5655565556553   3.9290642584060516    0.0    0.0
 3163.5163516351636   3.9191894288491698    0.0    0.0
 3171.4671467146713   3.9093641112327373    0.0    0.0
 3179.4179417941796   3.899587934112074    0.0    0.0
 3187.3687368736873   3.889860529748731    0.0    0.0
 3195.319531953195   3.88018153406438    0.0    0.0
 3203.2703270327033   3.870550586595387    0.0    0.0
 3211.221122112211   3.860967330448066    0.0    0.0
 3219.1719171917193   3.851431412254592    0.0    0.0
 3227.122712271227   3.8419424821295696    0.0    0.0
 3235.073507350735   3.832500193627234    0.0    0.0
 3243.024302430243   3.823104203699292    0.0    0.0
 3250.975097509751   3.8137541726533755    0.0    0.0
 3258.925892589259   3.8044497641121016    0.0    0.0
 3266.876687668767   3.7951906449727373    0.0    0.0
 3274.8274827482746   3.785976485367444    0.0    0.0
 3282.778277827783   3.776806958624105    0.0    0.0
 3290.7290729072906   3.7676817412277215    0.0    0.0
 3298.679867986799   3.7586005127823587    0.0    0.0
 3306.6306630663066   3.7495629559736545    0.0    0.0
 3314.5814581458144   3.7405687565318533    0.0    0.0
 3322.5322532253226   3.7316176031953807    0.0    0.0
 3330.4830483048304   3.7227091876749383    0.0    0.0
 3338.4338433843386   3.713843204618104    0.0    0.0
